Time (s),W,X,Y,Z
0.000000000,0.2934545,0.04713451,-0.07164276,0.9503462
0.020018578,0.293424,0.04712457,-0.07169476,0.9503522
0.040036678,0.2934717,0.0471311,-0.07169702,0.9503369
0.060055256,0.2935447,0.04713555,-0.07164922,0.9503177
0.080072880,0.2936064,0.04713579,-0.07162179,0.9503008
0.100091457,0.2936092,0.04712732,-0.07159879,0.950302
0.120110035,0.2936217,0.04710995,-0.0716164,0.9502978
0.140127659,0.293634,0.0471229,-0.07165018,0.9502907
0.160146236,0.2936748,0.04713188,-0.07167481,0.9502758
0.180164814,0.2936807,0.04713267,-0.07168389,0.9502732
0.200183392,0.2936303,0.04713169,-0.07167738,0.9502894
0.220201016,0.2935858,0.04711019,-0.07166021,0.9503055
0.240219593,0.2935492,0.04709964,-0.0716693,0.9503166
0.260237694,0.2935024,0.04710144,-0.0716959,0.9503289
0.277753830,0.2934857,0.04708173,-0.07172114,0.9503332
0.297771931,0.2935044,0.04709313,-0.07162283,0.9503343
0.317790032,0.2935202,0.04711207,-0.07156207,0.9503331
0.337808609,0.293518,0.04710419,-0.071569,0.9503336
0.357826710,0.2935204,0.04710704,-0.0716228,0.9503286
0.377844811,0.2935184,0.04709749,-0.07165218,0.9503276
0.397862911,0.2934919,0.04709845,-0.07167444,0.9503341
0.417881489,0.2934539,0.04708273,-0.07169325,0.950345
0.437900066,0.2934627,0.04705977,-0.07169072,0.9503438
0.457917690,0.2934524,0.04737922,-0.07156239,0.9503407
0.477936268,0.2936297,0.04942409,-0.06985899,0.9503084
0.497954846,0.2939983,0.05403611,-0.06928349,0.9499855
0.517972469,0.2943141,0.05829374,-0.07088125,0.9495181
0.537991047,0.2948645,0.06571452,-0.0719656,0.948781
0.558009625,0.2956695,0.07352357,-0.07766962,0.9475067
0.578027725,0.2962911,0.07894119,-0.08584346,0.9461704
0.598045826,0.2959907,0.0786389,-0.09839981,0.9450665
0.618064404,0.2953107,0.08491402,-0.1131499,0.9430832
0.638082504,0.2949224,0.09589913,-0.1301737,0.9399503
0.658100605,0.294949,0.1160669,-0.1504009,0.934634
0.678118706,0.2918481,0.1281369,-0.1769932,0.9293582
0.698137283,0.2878107,0.1171797,-0.2003223,0.9273254
0.718155861,0.2875203,0.1050366,-0.1943925,0.9301282
0.738173485,0.288404,0.09727956,-0.1611352,0.9370288
0.758192063,0.2867671,0.1114905,-0.1785941,0.9327735
0.778210640,0.2847087,0.1086493,-0.197336,0.9299583
0.798228264,0.2866861,0.09945433,-0.1763468,0.9345852
0.818246842,0.2864054,0.1176029,-0.1877969,0.9303233
0.838265419,0.2836114,0.1043423,-0.1881168,0.9326934
0.858283043,0.2845607,0.09591366,-0.1521465,0.9398429
0.878301620,0.2849926,0.108231,-0.177445,0.9339197
0.898319721,0.2854557,0.09724049,-0.1656297,0.9371519
0.918338299,0.2873595,0.09571781,-0.1506321,0.9392551
0.938356400,0.2838072,0.08450253,-0.1663014,0.9387673
0.958374500,0.2854107,0.06646524,-0.1397605,0.944043
0.978393078,0.2891952,0.05245275,-0.07894155,0.9507948
0.998410702,0.292253,0.05259186,-0.06945033,0.9505927
1.018429279,0.2936992,0.03668469,-0.01599102,0.9532925
1.038447857,0.2956011,-0.02519686,-0.01837217,0.953034
1.058466434,0.2810212,-0.3369498,-0.09107643,0.8920871
1.078484058,0.247948,-0.6150031,-0.1838185,0.7232743
1.098502636,0.2237186,-0.6772506,-0.201077,0.6689374
1.118521214,0.2387178,-0.6667727,-0.2101252,0.6714931
1.138538837,0.2241145,-0.6864575,-0.2133325,0.655489
1.158557415,0.2247389,-0.6799148,-0.2052214,0.6646203
1.178575516,0.2382405,-0.6733154,-0.2100637,0.6651229
1.198593617,0.2484049,-0.6770159,-0.2300557,0.6508813
1.218612194,0.2542537,-0.6772359,-0.2363179,0.6461332
1.238630295,0.2239465,-0.6914902,-0.2157858,0.6494254
1.258648872,0.2275222,-0.6920906,-0.2187606,0.6465413
1.278666496,0.2195482,-0.7027791,-0.2214999,0.6367618
1.298685074,0.2070192,-0.7137528,-0.2197253,0.6293238
1.318703652,0.1984127,-0.7071368,-0.2121128,0.6420482
1.338721275,0.2048438,-0.7098324,-0.2150048,0.6360639
1.358739853,0.2252025,-0.710123,-0.2355005,0.6214306
1.378758431,0.2268009,-0.7104933,-0.243229,0.6174365
1.398777008,0.2111264,-0.7260273,-0.239601,0.6062418
1.418794632,0.2039951,-0.7328925,-0.2439116,0.5986563
1.438813210,0.1852093,-0.74229,-0.237956,0.5955733
1.458831310,0.1791054,-0.7424672,-0.2313879,0.5997924
1.478849411,0.1220234,-0.8460088,-0.2500325,0.4510936
1.498867512,0.03829694,-0.9503224,-0.2710198,0.136349
1.518886089,-0.01199145,-0.9563085,-0.2644371,-0.1096853
1.538904190,-0.01008181,-0.9549833,-0.2629997,-0.1239516
1.558922291,0.08015268,-0.9545184,-0.2468402,-0.1347868
1.578940869,0.1104844,-0.9540613,-0.2375947,-0.133177
1.598959446,0.1560739,-0.9461731,-0.2291235,-0.1566122
1.618977070,0.1317421,-0.9477839,-0.2331098,-0.1632081
1.638995648,0.1442819,-0.9491265,-0.2326613,-0.1443515
1.659014225,0.1421776,-0.9454538,-0.233355,-0.1675576
1.679031849,0.1123768,-0.9508008,-0.2361672,-0.1555694
1.699050427,0.1377146,-0.9465706,-0.2270709,-0.1735078
1.719069004,0.1423926,-0.9468303,-0.226916,-0.1684444
1.739086628,0.15222,-0.9497861,-0.2241734,-0.145289
1.759105206,0.1527338,-0.9466172,-0.2238187,-0.1646847
1.779123306,0.1440064,-0.94801,-0.2244447,-0.1636803
1.799141884,0.1488534,-0.944199,-0.2234835,-0.1816958
1.819159985,0.110052,-0.9494469,-0.232728,-0.1700116
1.839178086,0.01907971,-0.9537877,-0.2500985,-0.15493
1.859196663,0.021091,-0.955285,-0.2444438,-0.1544684
1.879214287,-0.01867098,-0.9555977,-0.249327,-0.1447344
1.899232864,-0.07670875,-0.9357456,-0.2457947,-0.2338878
1.919251442,-0.1564379,-0.8075996,-0.1985493,-0.5296328
1.939269066,-0.203129,-0.6166499,-0.1316252,-0.7468489
1.959287643,-0.2050418,-0.6130792,-0.1415668,-0.7474478
1.979306221,-0.1902292,-0.6256272,-0.1271046,-0.7435561
1.999323845,-0.1864667,-0.6212785,-0.124028,-0.7486573
2.019342422,-0.2045972,-0.6128393,-0.1431503,-0.7474648
2.039361000,-0.1890046,-0.6183736,-0.1275348,-0.7498359
2.059379101,-0.1735651,-0.6289762,-0.1161564,-0.7465918
2.079397202,-0.1707019,-0.6228204,-0.1118118,-0.753048
2.099415302,-0.1888379,-0.6201714,-0.141291,-0.7459171
2.119433880,-0.1782666,-0.6228911,-0.1283308,-0.7485897
2.139451981,-0.1754454,-0.6164151,-0.1278738,-0.7546703
2.159470081,-0.1749617,-0.6133594,-0.1307772,-0.7567719
2.179488659,-0.1885176,-0.6164852,-0.151313,-0.7470871
2.199506283,-0.1821932,-0.6251338,-0.1487483,-0.741967
2.219524860,-0.1618558,-0.6194327,-0.1210688,-0.7563569
2.239543438,-0.1649698,-0.620648,-0.1308246,-0.7530561
2.259561062,-0.168161,-0.6128845,-0.139866,-0.757073
2.279579639,-0.1703456,-0.61063,-0.151203,-0.7562266
2.299598217,-0.1653095,-0.6123219,-0.1518649,-0.7558434
2.319616795,-0.1708985,-0.5878401,-0.147213,-0.7747214
2.339634419,-0.2246746,-0.3194646,-0.09384387,-0.9139363
2.359652996,-0.2522732,-0.007742906,0.006935107,-0.9658532
2.379671097,-0.2513619,0.07629911,0.02717379,-0.9627485
2.399689198,-0.2600954,0.04819048,0.08044278,-0.959262
2.419707775,-0.2644795,0.04467628,0.1323605,-0.9524511
2.439725876,-0.2714891,0.01112862,0.1786652,-0.9438624
2.459743977,-0.2670308,0.03436513,0.1881533,-0.9427298
2.479762077,-0.2662075,0.04342385,0.1709477,-0.9458607
2.499780655,-0.2679792,0.02166346,0.2009665,-0.9401904
2.519798756,-0.2660407,0.04024642,0.1826295,-0.9438626
2.539816857,-0.2676916,0.02868837,0.1950833,-0.9413226
2.559835434,-0.2701433,0.03322379,0.2135816,-0.936445
2.579854012,-0.2653306,0.03811616,0.1703238,-0.9464481
2.599871636,-0.2678914,0.03757004,0.2121606,-0.9372504
2.619890213,-0.2670707,0.03959305,0.1926987,-0.9415946
2.639908791,-0.2720853,0.01937829,0.217323,-0.93541
2.659926415,-0.2668543,0.0453042,0.2042792,-0.9389536
2.679944992,-0.2571822,0.08077281,0.1152529,-0.9542941
2.699963570,-0.2593008,0.08404147,0.08760258,-0.9563752
2.719981194,-0.2585962,0.08590954,0.07258587,-0.9576566
2.739999771,-0.255237,0.1149361,0.03933693,-0.957457
2.760017872,-0.2437652,0.3569424,0.08345287,-0.896007
2.780035973,-0.2169716,0.6353679,0.1606671,-0.7211374
2.800054074,-0.1859209,0.7255851,0.1811917,-0.6346312
2.820072651,-0.1966562,0.723938,0.1859819,-0.6318848
2.840090752,-0.2037342,0.7301307,0.1972045,-0.6189827
2.860108853,-0.1883882,0.7356857,0.1907481,-0.6192893
2.880127430,-0.2016393,0.7280339,0.1912424,-0.6239889
2.900145054,-0.2145581,0.730673,0.2076233,-0.6112298
2.920163631,-0.2123776,0.7358027,0.2086423,-0.6054637
2.940182209,-0.1940638,0.7446399,0.2030856,-0.6026893
2.960199833,-0.1937334,0.7410626,0.1943695,-0.6100341
2.980218410,-0.1922711,0.7487993,0.2039964,-0.597783
2.997734070,-0.1881871,0.758724,0.2080203,-0.5850459
3.017752647,-0.1735204,0.7618968,0.2019214,-0.5875878
3.037771225,-0.1766045,0.756639,0.1984878,-0.594591
3.057788849,-0.1883516,0.7577355,0.2078558,-0.586331
3.077807426,-0.1952219,0.7656339,0.2232088,-0.5678896
3.097826004,-0.181745,0.7671537,0.2148902,-0.5734925
3.117843628,-0.1639898,0.7814197,0.213477,-0.5599517
3.137862206,-0.1657943,0.7870805,0.2185521,-0.5494353
3.157880783,-0.1571307,0.7904291,0.2146894,-0.5486965
3.177898407,-0.1020975,0.8763843,0.2245523,-0.4095427
3.197916985,-0.02797376,0.964653,0.2399195,-0.08787961
3.217935085,0.0173957,0.956356,0.23091,0.1684894
3.237953186,0.01692963,0.9528444,0.2292262,0.1894305
3.257971764,-0.0650317,0.9551189,0.207288,0.1928162
3.277989864,-0.095273,0.9546375,0.1974016,0.1930032
3.298007965,-0.1618724,0.9438297,0.1821825,0.2154534
3.318026066,-0.1335292,0.9445172,0.1875212,0.2269821
3.338044643,-0.1320283,0.9483639,0.1859565,0.2126548
3.358062744,-0.1400531,0.9447579,0.1852883,0.2238602
3.378080845,-0.1159121,0.9494074,0.187891,0.2156729
3.398099423,-0.1468887,0.9440922,0.1742921,0.2310053
3.418117046,-0.133067,0.94627,0.1803276,0.2257779
3.438135624,-0.1516612,0.9480445,0.1729631,0.2119475
3.458154202,-0.1403351,0.9463772,0.1769807,0.2235658
3.478171826,-0.1299336,0.9475229,0.1782697,0.2239757
3.498190403,-0.1428993,0.9410905,0.1747612,0.2449784
3.518208981,-0.1073819,0.9462759,0.186351,0.2343748
3.538226605,-0.01308626,0.9500797,0.2084496,0.2243962
3.558245182,-0.01571385,0.9521168,0.2030651,0.2204971
3.578263760,0.02596792,0.9514031,0.2122982,0.2138101
3.598281384,0.08323951,0.9234022,0.2120476,0.3034111
3.618299961,0.1522138,0.7729659,0.1654917,0.5904146
3.638318539,0.1895978,0.5658516,0.1011014,0.7938954
3.658336163,0.194961,0.5591501,0.1138002,0.7956246
3.678354740,0.1789939,0.5711004,0.09585448,0.7932497
3.698372841,0.1798255,0.5664439,0.09857418,0.7960622
3.718390942,0.1856535,0.5663779,0.108157,0.793523
3.738409043,0.1764934,0.5712898,0.09830014,0.7933743
3.758427620,0.1671918,0.5761114,0.09178125,0.7926831
3.778445721,0.1557972,0.5705442,0.07455835,0.8007966
3.798463822,0.1752211,0.5726474,0.1098808,0.7911551
3.818482399,0.1674153,0.5704437,0.09769849,0.7960205
3.838500023,0.1676908,0.5654648,0.102468,0.79891
3.858518601,0.1696028,0.5604527,0.1095641,0.8010936
3.878537178,0.1729862,0.5703877,0.1204515,0.7917402
3.898554802,0.1688818,0.57371,0.1173247,0.7906948
3.918573379,0.1520058,0.5676875,0.09361865,0.8015538
3.938591957,0.1543043,0.5701548,0.1018262,0.7983563
3.958609581,0.1573523,0.5570194,0.1107331,0.8058136
3.978628159,0.1535885,0.5601539,0.1148038,0.8037947
3.998646736,0.1541829,0.561545,0.1233555,0.8014399
4.018664360,0.1618048,0.5189018,0.1164129,0.8292373
4.038682938,0.2073386,0.2232444,0.06652936,0.9483507
4.058701515,0.2248969,-0.09358972,-0.02646937,0.9677731
4.078719139,0.2238706,-0.1487599,-0.03917427,0.9606485
4.098737717,0.2403552,-0.1105738,-0.1062058,0.9567395
4.118755817,0.2470897,-0.1063591,-0.1428894,0.9507074
4.138773918,0.2594735,-0.07877049,-0.2132805,0.9368071
4.158792019,0.2567784,-0.0978315,-0.2195084,0.9343112
4.178810597,0.2506801,-0.1096199,-0.1808624,0.9428995
4.198828697,0.2519375,-0.1061018,-0.2112703,0.9366228
4.218846798,0.2516429,-0.1024817,-0.2019732,0.9391527
4.238865376,0.257172,-0.09062213,-0.2119668,0.9366685
4.258882999,0.2537014,-0.1157298,-0.2102606,0.9352328
4.278901577,0.2528801,-0.1008225,-0.1911772,0.9412573
4.298920155,0.2554815,-0.1047366,-0.2293997,0.9315379
4.318937779,0.2517301,-0.1135764,-0.2018357,0.9378817
4.338956356,0.2580701,-0.1038682,-0.2340877,0.9297535
4.358974934,0.2537895,-0.117387,-0.216461,0.9335864
4.378992558,0.2361432,-0.1558072,-0.1170076,0.9502087
4.399011135,0.2372295,-0.149076,-0.1027252,0.9526666
4.419029713,0.2321501,-0.1538258,-0.07701652,0.9555836
4.439047337,0.2261632,-0.1967195,-0.04467021,0.9512011
4.459065914,0.2096726,-0.4713542,-0.09838781,0.8490022
4.479083538,0.1806204,-0.7277408,-0.1669326,0.6375932
4.499102116,0.1512447,-0.7750013,-0.1684208,0.5871626
4.519120693,0.167073,-0.7691421,-0.1792646,0.5873659
4.539138317,0.1716167,-0.7749674,-0.1885267,0.5753768
4.559156895,0.1593355,-0.7773959,-0.1786501,0.5787741
4.579175472,0.1657974,-0.7743729,-0.1760437,0.5818025
4.599193096,0.1850323,-0.776988,-0.1964285,0.5657703
4.619211674,0.193236,-0.7782754,-0.2037746,0.558615
4.639229775,0.1668577,-0.7843519,-0.1883961,0.5639902
4.659247875,0.1669047,-0.7863182,-0.1846365,0.5624798
4.679265976,0.1646905,-0.7917407,-0.1893804,0.5538831
4.699284554,0.1593888,-0.8043193,-0.1958034,0.534747
4.719302654,0.1482663,-0.7991586,-0.1883134,0.5482046
4.739320755,0.150868,-0.7979126,-0.1854446,0.5502839
4.759339333,0.1647173,-0.8037415,-0.1996964,0.5325569
4.779356957,0.1657109,-0.8081089,-0.2072732,0.5226523
4.799375534,0.1552357,-0.8170927,-0.207252,0.5117967
4.819393635,0.1411406,-0.8217032,-0.2051108,0.5093528
4.839411736,0.1336516,-0.8273949,-0.2068666,0.5013868
4.859430313,0.1256323,-0.8373839,-0.2069489,0.4866257
4.879447937,0.05455898,-0.9427904,-0.2209835,0.2365539
4.899466515,-0.003948145,-0.9702237,-0.2141324,-0.09705625
4.919485092,-0.02964545,-0.9503692,-0.2084148,-0.2216086
4.939502716,0.01382432,-0.9529213,-0.1946832,-0.2246672
4.959521294,0.0758026,-0.949574,-0.1744261,-0.2424176
4.979539871,0.1498401,-0.949231,-0.1480352,-0.2263205
4.999557495,0.1347949,-0.9411869,-0.1569887,-0.2607289
5.019576073,0.1169213,-0.9421923,-0.1616168,-0.2628892
5.039594650,0.1440022,-0.9426013,-0.1526186,-0.2531824
5.059612274,0.1293036,-0.9427291,-0.1587966,-0.2568143
5.079630852,0.1378422,-0.9445421,-0.1507684,-0.2504718
5.099649429,0.1338425,-0.9388235,-0.152443,-0.2721864
5.119667053,0.1127833,-0.9449536,-0.1585393,-0.2565843
5.139685631,0.1405604,-0.9406739,-0.1472452,-0.2651821
5.159703255,0.129395,-0.9410965,-0.1506976,-0.2674176
5.179721832,0.1530248,-0.9423866,-0.1390485,-0.2564837
5.199739933,0.1300921,-0.9384037,-0.1470784,-0.2783342
5.219758034,0.04666494,-0.9436441,-0.1721874,-0.2726471
5.239776611,0.01856258,-0.9469273,-0.1757287,-0.2621663
5.259794712,-0.001910752,-0.9462316,-0.1817023,-0.2612549
5.279812813,-0.05078148,-0.9403176,-0.1908385,-0.270984
5.299830914,-0.1085246,-0.8507542,-0.1685703,-0.482334
5.319849491,-0.1595074,-0.6483004,-0.1122705,-0.733677
5.339867592,-0.1769074,-0.537847,-0.09408941,-0.8168226
5.359885693,-0.1696965,-0.5401204,-0.0917637,-0.817117
5.379903793,-0.1582688,-0.5435293,-0.07378978,-0.8189686
5.399921894,-0.1666002,-0.5391671,-0.08988213,-0.8185914
5.419940472,-0.1713553,-0.5365714,-0.09383281,-0.818872
5.439958572,-0.1509265,-0.5417662,-0.06779197,-0.8220355
5.459976673,-0.1485172,-0.5476855,-0.06710685,-0.8186009
5.479995251,-0.1495346,-0.5405207,-0.07537936,-0.8224489
5.500012875,-0.1606778,-0.5382811,-0.09250569,-0.820065
5.520031452,-0.1535192,-0.5368135,-0.08320263,-0.8233882
5.540049553,-0.1495899,-0.5280303,-0.08247604,-0.8298387
5.560067654,-0.1573461,-0.531176,-0.09636973,-0.8248847
5.580086231,-0.1575303,-0.5337858,-0.1021982,-0.8224597
5.600103855,-0.1470463,-0.5339108,-0.08743593,-0.8260141
5.620122433,-0.1353257,-0.53261,-0.07493836,-0.8300755
5.640141010,-0.1347887,-0.5355515,-0.08286227,-0.8275131
5.660158634,-0.1378831,-0.5269141,-0.09341004,-0.8314157
5.680177212,-0.1333796,-0.5247257,-0.09646109,-0.8331841
5.700194836,-0.137626,-0.5245827,-0.1056817,-0.8314632
5.717711449,-0.1667032,-0.3795449,-0.09569234,-0.9031174
5.737729073,-0.1956298,-0.06650248,-0.02916618,-0.9762573
5.757747650,-0.2013466,0.1810305,0.03892786,-0.960104
5.777766228,-0.2023653,0.1961453,0.04728192,-0.9565392
5.797783852,-0.2252943,0.1655772,0.130307,-0.94946
5.817802429,-0.2370953,0.139463,0.163923,-0.9455646
5.837820053,-0.2444974,0.1361415,0.224593,-0.9315965
5.857838631,-0.2348476,0.1662428,0.1915185,-0.9365673
5.877857208,-0.2417575,0.1372509,0.2018262,-0.9373416
5.897874832,-0.2354071,0.1625897,0.2057033,-0.9340568
5.917893410,-0.2339028,0.1523474,0.1784861,-0.9417272
5.937911987,-0.2389288,0.1603509,0.209167,-0.9327794
5.957929611,-0.2374833,0.1624069,0.1950926,-0.9358377
5.977948189,-0.2467076,0.1357759,0.2167611,-0.9329214
5.997965813,-0.2431334,0.1504868,0.2135984,-0.9323321
6.017984390,-0.2440402,0.1522405,0.2026306,-0.9342567
6.038002968,-0.244699,0.1645516,0.2262051,-0.9265549
6.058020592,-0.2353384,0.1788641,0.1837473,-0.935675
6.078039169,-0.2173762,0.2028775,0.09588974,-0.9481671
6.098057747,-0.2213188,0.1986927,0.09820864,-0.9479039
6.118075371,-0.212236,0.2099296,0.0544248,-0.9510789
6.138093948,-0.1998392,0.3331171,0.04483031,-0.9185367
6.158111572,-0.1827719,0.6191151,0.1094705,-0.7536109
6.178130150,-0.1556506,0.8040306,0.1620763,-0.547418
6.198148727,-0.1461974,0.803492,0.1567538,-0.552343
6.218166351,-0.1682738,0.8005202,0.1726502,-0.5455922
6.238184929,-0.1571346,0.8091145,0.1711455,-0.5366371
6.258202553,-0.1510641,0.8072734,0.1591528,-0.5447819
6.278221130,-0.1659404,0.8082643,0.172708,-0.5347636
6.298239708,-0.167537,0.8079014,0.1769742,-0.5334178
6.318257332,-0.1732163,0.8177337,0.1871888,-0.5127335
6.338275910,-0.1457983,0.8175416,0.164072,-0.5292227
6.358294010,-0.1595413,0.8174163,0.1747766,-0.521975
6.378312111,-0.1562566,0.8263896,0.1780506,-0.507533
6.398330212,-0.1408047,0.8312303,0.1772409,-0.5044239
6.418348312,-0.1335255,0.8310671,0.1731048,-0.508095
6.438366890,-0.1438905,0.8250785,0.1726946,-0.5151166
6.458384991,-0.1648398,0.8311453,0.1941593,-0.4908716
6.478403092,-0.1507897,0.8359269,0.1909863,-0.4885084
6.498421192,-0.1363076,0.8465526,0.1857309,-0.4763407
6.518439293,-0.1330085,0.8497038,0.1898179,-0.4700097
6.538457871,-0.1234914,0.8518843,0.1870738,-0.4697596
6.558475971,-0.1033025,0.8944717,0.1964128,-0.3837898
6.578494072,-0.02350064,0.97478,0.2050389,-0.06190995
6.598512173,0.02239747,0.9460191,0.1915666,0.2539166
6.618530750,0.02722569,0.9367324,0.1910938,0.2861852
6.638548851,-0.05017552,0.9417722,0.1625085,0.2841936
6.658566952,-0.08145678,0.9411861,0.1483618,0.2866176
6.678585053,-0.1504669,0.9324884,0.1236374,0.2986068
6.698603153,-0.1346354,0.9284434,0.1293958,0.3158329
6.718621731,-0.1145991,0.9338319,0.1367069,0.3045718
6.738639832,-0.1363838,0.9275402,0.1286816,0.3180208
6.758657932,-0.1213214,0.9331431,0.1302401,0.3069041
6.778676033,-0.1381557,0.931701,0.117446,0.3093226
6.798694134,-0.1359338,0.9275042,0.1188777,0.3221081
6.818712712,-0.1269799,0.9361647,0.1222394,0.2985902
6.838730335,-0.1382821,0.93068,0.1165283,0.3126683
6.858748913,-0.1136092,0.9317264,0.1246046,0.3163543
6.878767490,-0.1436935,0.9237545,0.1116929,0.3319367
6.898785114,-0.1112012,0.9268332,0.1249385,0.3311079
6.918803692,-0.02244411,0.9309499,0.1562867,0.3240843
6.938821316,-0.01268256,0.9325604,0.154608,0.3207712
6.958839893,0.02494039,0.9345406,0.1675579,0.3075122
6.978858471,0.06113759,0.9127911,0.1679059,0.3626413
6.998876095,0.1288172,0.7475042,0.1322769,0.6354282
7.018894672,0.1612464,0.5043222,0.06614807,0.8437454
7.038912296,0.1698816,0.4766032,0.0806217,0.8568065
7.058930874,0.1572853,0.4878218,0.06494296,0.8542256
7.078949451,0.1579476,0.4836756,0.06518935,0.8564394
7.098967075,0.1603631,0.4847374,0.0703744,0.8549787
7.118985653,0.1527498,0.4906938,0.06655665,0.853279
7.139003277,0.1406232,0.4919668,0.05255479,0.8556047
7.159021854,0.1340688,0.4864696,0.04299876,0.8603207
7.179040432,0.1463639,0.4930467,0.07486104,0.8523533
7.199058056,0.1392214,0.4912865,0.06484549,0.8553815
7.219076634,0.138258,0.4832361,0.06957217,0.8597412
7.239094257,0.1384673,0.4778387,0.07302649,0.8624337
